# Rank of the process:       0
#                   time                  density                 pressure              velocity_01              velocity_02              velocity_03
 0.1000000000000000E+001  0.1000011374218546E+001  0.3333371247395153E+000 -0.2340499379797416E-005  0.2081644494092758E-016  0.1387762996061839E-016
 0.2000000000000000E+001  0.1000013437660119E+001  0.3333378125533730E+000 -0.5000660132887587E-005  0.3469400331331145E-017  0.3469400331331145E-017
 0.3000000000000000E+001  0.1000017103513256E+001  0.3333390345044188E+000 -0.8201170178628947E-005 -0.1040816283970974E-016 -0.3469387613236580E-017
 0.4000000000000000E+001  0.1000022699764526E+001  0.3333408999215087E+000 -0.1228476074096570E-004 -0.3122431378301216E-016  0.6591799576413678E-016
 0.5000000000000000E+001  0.1000030701541212E+001  0.3333435671804039E+000 -0.1759335210717928E-004  0.1040802131356555E-016  0.1179575748870763E-015
 0.6000000000000000E+001  0.1000041745719644E+001  0.3333472485732146E+000 -0.2458228092758055E-004  0.6938604246879619E-016  0.7979394883911562E-016
 0.7000000000000000E+001  0.1000056656676073E+001  0.3333522188920244E+000 -0.3377276893942075E-004  0.5550800633212359E-016  0.7285425831091222E-016
 0.8000000000000000E+001  0.1000076470147502E+001  0.3333588233825006E+000 -0.4581592743272064E-004  0.1040754498936037E-016  0.7632199658864275E-016
 0.9000000000000000E+001  0.1000102462474426E+001  0.3333674874914754E+000 -0.6148007294871062E-004  0.1734545750127244E-016  0.5897455550432629E-016
 0.1000000000000000E+002  0.1000136177566468E+001  0.3333787258554893E+000 -0.8168968519116343E-004  0.7978641477513185E-016  0.5550359288704825E-016
 0.1100000000000000E+002  0.1000179453293633E+001  0.3333931510978775E+000 -0.1075267226227917E-003  0.6590766473960552E-016  0.6243884027962628E-016
 0.1200000000000000E+002  0.1000234442076276E+001  0.3334114806920919E+000 -0.1402537815677119E-003  0.3815497134078839E-016  0.7284130892332328E-016
 0.1300000000000000E+002  0.1000303625401861E+001  0.3334345418006202E+000 -0.1813155962040254E-003  0.1387357543789688E-016  0.9711502806527817E-016
 0.1400000000000000E+002  0.1000389818787482E+001  0.3334632729291608E+000 -0.2323455876679380E-003  0.2427666516349715E-016  0.5548952037370776E-016
 0.1500000000000000E+002  0.1000496165545181E+001  0.3334987218483935E+000 -0.2951557257200794E-003  0.5548362216961545E-016 -0.3467726385600966E-017
 0.1600000000000000E+002  0.1000626115319923E+001  0.3335420384399743E+000 -0.3717217132904497E-003 -0.6934552074616508E-017  0.5200914055962381E-016
 0.1700000000000000E+002  0.1000783384051495E+001  0.3335944613504985E+000 -0.4641525307288453E-003 -0.2080038702026508E-016  0.1109353974414137E-015
 0.1800000000000000E+002  0.1000971891612636E+001  0.3336572972042121E+000 -0.5746495744714581E-003  0.1386431319810226E-016  0.1143805838843436E-015
 0.1900000000000000E+002  0.1001195675147520E+001  0.3337318917158401E+000 -0.7054493201059344E-003  0.4504894646968121E-016  0.9356319651395329E-016
 0.2000000000000000E+002  0.1001458777112712E+001  0.3338195923709040E+000 -0.8587517391875164E-003  0.1732196587240623E-016  0.1004674020599561E-015
 0.2100000000000000E+002  0.1001765108503086E+001  0.3339217028343620E+000 -0.1036631525810270E-002 -0.1039000137608484E-016  0.9697334617679185E-016
 0.2200000000000000E+002  0.1002118288455909E+001  0.3340394294853029E+000 -0.1240934445593618E-002 -0.3462113197534228E-017  0.8309071674082147E-016
 0.2300000000000000E+002  0.1002521462815459E+001  0.3341738209384864E+000 -0.1473159034359838E-002  0.3114648785661991E-016  0.4845009222140875E-016
 0.2400000000000000E+002  0.1002977105894942E+001  0.3343257019649808E+000 -0.1734327645924234E-002  0.5534637919947934E-016  0.4496893309957697E-016
 0.2500000000000000E+002  0.1003486812212962E+001  0.3344956040709874E+000 -0.2024850062652376E-002  0.2420174173501868E-016  0.5877565849933107E-016
 0.2600000000000000E+002  0.1004051087545175E+001  0.3346836958483915E+000 -0.2344386006711947E-002  0.4837628077880570E-016  0.6219807528703591E-016
 0.2700000000000000E+002  0.1004669151281702E+001  0.3348897170939005E+000 -0.2691712813525840E-002  0.7597310303158473E-016  0.7942642589665677E-016
 0.2800000000000000E+002  0.1005338764200676E+001  0.3351129214002254E+000 -0.3064607311318062E-002  0.9317761439073393E-016  0.7937352336988445E-016
 0.2900000000000000E+002  0.1006056097521272E+001  0.3353520325070907E+000 -0.3459750777109651E-002  0.8276549096222355E-016  0.7586836671537159E-016
 0.3000000000000000E+002  0.1006815659913795E+001  0.3356052199712650E+000 -0.3872667611303254E-002  0.7236516960539146E-016  0.5168940686099390E-016
 0.3100000000000000E+002  0.1007610298817289E+001  0.3358700996057631E+000 -0.4297706952279595E-002  0.1239567424200954E-015  0.6542161405505036E-016
 0.3200000000000000E+002  0.1008431290186023E+001  0.3361437633953409E+000 -0.4728076318597715E-002  0.1410580238975510E-015  0.8601099018143353E-016
 0.3300000000000000E+002  0.1009268526475353E+001  0.3364228421584509E+000 -0.5155932849684049E-002  0.1203154959586882E-015  0.5156378398229494E-016
 0.3400000000000000E+002  0.1010110806028544E+001  0.3367036020095145E+000 -0.5572535250973632E-002  0.9617213683382384E-016  0.1717359586318283E-016
 0.3500000000000000E+002  0.1010946218526273E+001  0.3369820728420911E+000 -0.5968453986825167E-002  0.9266078252837648E-016  0.3431880834384314E-016
 0.3600000000000000E+002  0.1011762611401830E+001  0.3372542038006101E+000 -0.6333833291584593E-002  0.8915690274995547E-016  0.3429111644229056E-016
 0.3700000000000000E+002  0.1012548112343424E+001  0.3375160374478080E+000 -0.6658692608107423E-002  0.8566128635418581E-016  0.2398516017917203E-016
 0.3800000000000000E+002  0.1013291674467119E+001  0.3377638914890395E+000 -0.6933251971472451E-002  0.8559842736737590E-016  0.3766330804164540E-016
 0.3900000000000000E+002  0.1013983604961216E+001  0.3379945349870719E+000 -0.7148262259433062E-002  0.1026480192079531E-015  0.5132400960397655E-016
 0.4000000000000000E+002  0.1014616036059436E+001  0.3382053453531454E+000 -0.7295321624975613E-002  0.1196813760109574E-015  0.4787255040438295E-016
 0.4100000000000000E+002  0.1015183299764408E+001  0.3383944332548028E+000 -0.7367160056798745E-002  0.9569160040087868E-016  0.4442824304326510E-016
 0.4200000000000000E+002  0.1015682174628693E+001  0.3385607248762309E+000 -0.7357878529481453E-002  0.9222872079742146E-016  0.3415878548052647E-016
 0.4300000000000000E+002  0.1016111983279510E+001  0.3387039944265032E+000 -0.7263133248526493E-002  0.9218970865830213E-016  0.4097320384813428E-016
 0.4400000000000000E+002  0.1016474531806130E+001  0.3388248439353765E+000 -0.7080261960079804E-002  0.9898325876190740E-016  0.7167753220689846E-016
 0.4500000000000000E+002  0.1016773895007892E+001  0.3389246316692973E+000 -0.6808353639776869E-002  0.1126029591992825E-015  0.5118316327240116E-016
 0.4600000000000000E+002  0.1017016063305559E+001  0.3390053544351864E+000 -0.6448267868002186E-002  0.1023419514341898E-015  0.5458237409823454E-016
 0.4700000000000000E+002  0.1017208476751752E+001  0.3390694922505840E+000 -0.6002611801386913E-002  0.7844732099534747E-016  0.7162581482183899E-016
 0.4800000000000000E+002  0.1017359478460833E+001  0.3391198261536111E+000 -0.5475684063810092E-002  0.7502543059652441E-016  0.7843567744182097E-016
 0.4900000000000000E+002  0.1017477723853493E+001  0.3391592412844977E+000 -0.4873392887082115E-002  0.6819701052154300E-016  0.5796745894331155E-016
 0.5000000000000000E+002  0.1017571583671190E+001  0.3391905278903966E+000 -0.4203154110938366E-002  0.6819072009531870E-016  0.5455257607625496E-016
